                  #Energy              Total trace      Spin Up (spin axis)      Spin Dn (spin axis)         <Sx> (spin axis)         <Sy> (spin axis)         <Sz> (spin axis)
       -1.000000000000000        0.035857691192192        0.015377771984830        0.020479919207363        0.000000000000000        0.000000000000000        0.002551073611266
       -0.998000000000000        0.036024374222416        0.015443484705371        0.020580889517045        0.000000000000000        0.000000000000000        0.002568702405837
       -0.996000000000000        0.036192257319005        0.015509631569185        0.020682625749820        0.000000000000000        0.000000000000000        0.002586497090318
       -0.994000000000000        0.036361352345398        0.015576216512499        0.020785135832899        0.000000000000000        0.000000000000000        0.002604459660200
       -0.992000000000000        0.036531671317393        0.015643243517521        0.020888427799873        0.000000000000000        0.000000000000000        0.002622592141176
       -0.990000000000000        0.036703226402387        0.015710716612910        0.020992509789477        0.000000000000000        0.000000000000000        0.002640896588283
       -0.988000000000000        0.036876029925165        0.015778639874634        0.021097390050531        0.000000000000000        0.000000000000000        0.002659375087949
       -0.986000000000000        0.037050094367544        0.015847017427214        0.021203076940330        0.000000000000000        0.000000000000000        0.002678029756558
       -0.984000000000000        0.037225432372643        0.015915853442904        0.021309578929739        0.000000000000000        0.000000000000000        0.002696862743417
       -0.982000000000000        0.037402056746937        0.015985152144851        0.021416904602086        0.000000000000000        0.000000000000000        0.002715876228618
       -0.980000000000000        0.037579980461988        0.016054917804901        0.021525062657088        0.000000000000000        0.000000000000000        0.002735072426093
       -0.978000000000000        0.037759216658880        0.016125154746112        0.021634061912769        0.000000000000000        0.000000000000000        0.002754453583328
       -0.976000000000000        0.037939778648739        0.016195867343605        0.021743911305134        0.000000000000000        0.000000000000000        0.002774021980764
       -0.974000000000000        0.038121679917967        0.016267060024703        0.021854619893264        0.000000000000000        0.000000000000000        0.002793779934281
       -0.972000000000000        0.038304934128957        0.016338737269963        0.021966196858994        0.000000000000000        0.000000000000000        0.002813729794515
       -0.970000000000000        0.038489555124242        0.016410903613786        0.022078651510455        0.000000000000000        0.000000000000000        0.002833873948335
       -0.968000000000000        0.038675556928285        0.016483563645116        0.022191993283170        0.000000000000000        0.000000000000000        0.002854214819027
       -0.966000000000000        0.038862953751817        0.016556722009197        0.022306231742620        0.000000000000000        0.000000000000000        0.002874754866711
       -0.964000000000000        0.039051759994195        0.016630383407033        0.022421376587163        0.000000000000000        0.000000000000000        0.002895496590065
       -0.962000000000000        0.039241990245265        0.016704552597321        0.022537437647944        0.000000000000000        0.000000000000000        0.002916442525311
       -0.960000000000000        0.039433659291755        0.016779234396360        0.022654424895395        0.000000000000000        0.000000000000000        0.002937595249518
       -0.958000000000000        0.039626782116850        0.016854433680388        0.022772348436461        0.000000000000000        0.000000000000000        0.002958957378037
       -0.956000000000000        0.039821373906429        0.016930155384996        0.022891218521432        0.000000000000000        0.000000000000000        0.002980531568218
       -0.954000000000000        0.040017450049573        0.017006404506508        0.023011045543065        0.000000000000000        0.000000000000000        0.003002320518278
       -0.952000000000000        0.040215026145575        0.017083186103719        0.023131840041856        0.000000000000000        0.000000000000000        0.003024326969069
       -0.950000000000000        0.040414118003295        0.017160505297131        0.023253612706164        0.000000000000000        0.000000000000000        0.003046553704516
       -0.948000000000000        0.040614741648229        0.017238367271812        0.023376374376417        0.000000000000000        0.000000000000000        0.003069003552302
       -0.946000000000000        0.040816913324424        0.017316777277484        0.023500136046941        0.000000000000000        0.000000000000000        0.003091679384729
       -0.944000000000000        0.041020649498888        0.017395740629228        0.023624908869660        0.000000000000000        0.000000000000000        0.003114584120216
       -0.942000000000000        0.041225966863625        0.017475262709110        0.023750704154514        0.000000000000000        0.000000000000000        0.003137720722702
       -0.940000000000000        0.041432882342631        0.017555348966622        0.023877533376009        0.000000000000000        0.000000000000000        0.003161092204694
       -0.938000000000000        0.041641413092993        0.017636004920572        0.024005408172420        0.000000000000000        0.000000000000000        0.003184701625924
       -0.936000000000000        0.041851576510476        0.017717236159533        0.024134340350943        0.000000000000000        0.000000000000000        0.003208552095705
       -0.934000000000000        0.042063390232921        0.017799048342865        0.024264341890056        0.000000000000000        0.000000000000000        0.003232646773596
       -0.932000000000000        0.042276872144964        0.017881447202759        0.024395424942205        0.000000000000000        0.000000000000000        0.003256988869723
       -0.930000000000000        0.042492040381635        0.017964438543596        0.024527601838038        0.000000000000000        0.000000000000000        0.003281581647221
       -0.928000000000000        0.042708913333656        0.018048028245430        0.024660885088226        0.000000000000000        0.000000000000000        0.003306428421398
       -0.926000000000000        0.042927509650971        0.018132222263291        0.024795287387679        0.000000000000000        0.000000000000000        0.003331532562194
       -0.924000000000000        0.043147848247933        0.018217026629465        0.024930821618468        0.000000000000000        0.000000000000000        0.003356897494502
       -0.922000000000000        0.043369948307578        0.018302447453981        0.025067500853597        0.000000000000000        0.000000000000000        0.003382526699808
       -0.920000000000000        0.043593829287344        0.018388490926874        0.025205338360470        0.000000000000000        0.000000000000000        0.003408423716798
       -0.918000000000000        0.043819510922027        0.018475163318182        0.025344347603845        0.000000000000000        0.000000000000000        0.003434592142831
       -0.916000000000000        0.044047013230625        0.018562470980581        0.025484542250044        0.000000000000000        0.000000000000000        0.003461035634732
       -0.914000000000000        0.044276356519935        0.018650420349615        0.025625936170321        0.000000000000000        0.000000000000000        0.003487757910353
       -0.912000000000000        0.044507561391944        0.018739017946058        0.025768543445886        0.000000000000000        0.000000000000000        0.003514762749914
       -0.910000000000000        0.044740648745566        0.018828270376122        0.025912378369444        0.000000000000000        0.000000000000000        0.003542053996661
       -0.908000000000000        0.044975639785902        0.018918184334723        0.026057455451179        0.000000000000000        0.000000000000000        0.003569635558228
       -0.906000000000000        0.045212556027412        0.019008766604259        0.026203789423152        0.000000000000000        0.000000000000000        0.003597511409446
       -0.904000000000000        0.045451419299467        0.019100024058986        0.026351395240481        0.000000000000000        0.000000000000000        0.003625685590748
       -0.902000000000000        0.045692251753843        0.019191963664549        0.026500288089294        0.000000000000000        0.000000000000000        0.003654162212373
       -0.900000000000000        0.045935075869255        0.019284592480204        0.026650483389051        0.000000000000000        0.000000000000000        0.003682945454424
       -0.898000000000000        0.046179914457401        0.019377917660275        0.026801996797127        0.000000000000000        0.000000000000000        0.003712039568426
       -0.896000000000000        0.046426790670214        0.019471946456520        0.026954844213694        0.000000000000000        0.000000000000000        0.003741448878587
       -0.894000000000000        0.046675728004343        0.019566686217881        0.027109041786463        0.000000000000000        0.000000000000000        0.003771177784291
       -0.892000000000000        0.046926750309851        0.019662144394308        0.027264605915543        0.000000000000000        0.000000000000000        0.003801230760618
       -0.890000000000000        0.047179881794967        0.019758328537464        0.027421553257503        0.000000000000000        0.000000000000000        0.003831612360019
       -0.888000000000000        0.047435147034420        0.019855246302674        0.027579900731746        0.000000000000000        0.000000000000000        0.003862327214536
       -0.886000000000000        0.047692570973185        0.019952905449173        0.027739665524013        0.000000000000000        0.000000000000000        0.003893380037420
       -0.884000000000000        0.047952178939307        0.020051313845756        0.027900865093551        0.000000000000000        0.000000000000000        0.003924775623897
       -0.882000000000000        0.048213996645065        0.020150479468551        0.028063517176514        0.000000000000000        0.000000000000000        0.003956518853982
       -0.880000000000000        0.048478050198255        0.020250410405100        0.028227639793155        0.000000000000000        0.000000000000000        0.003988614694027
       -0.878000000000000        0.048744366107198        0.020351114855923        0.028393251251275        0.000000000000000        0.000000000000000        0.004021068197676
       -0.876000000000000        0.049012971291704        0.020452601136240        0.028560370155464        0.000000000000000        0.000000000000000        0.004053884509612
       -0.874000000000000        0.049283893087485        0.020554877678364        0.028729015409121        0.000000000000000        0.000000000000000        0.004087068865379
       -0.872000000000000        0.049557159256696        0.020657953033455        0.028899206223241        0.000000000000000        0.000000000000000        0.004120626594893
       -0.870000000000000        0.049832797995223        0.020761835874089        0.029070962121134        0.000000000000000        0.000000000000000        0.004154563123522
       -0.868000000000000        0.050110837941892        0.020866534995535        0.029244302946356        0.000000000000000        0.000000000000000        0.004188883975411
       -0.866000000000000        0.050391308185823        0.020972059319205        0.029419248866618        0.000000000000000        0.000000000000000        0.004223594773706
       -0.864000000000000        0.050674238277330        0.021078417894011        0.029595820383320        0.000000000000000        0.000000000000000        0.004258701244655
       -0.862000000000000        0.050959658234630        0.021185619898854        0.029774038335776        0.000000000000000        0.000000000000000        0.004294209218461
       -0.860000000000000        0.051247598557500        0.021293674645853        0.029953923911647        0.000000000000000        0.000000000000000        0.004330124632897
       -0.858000000000000        0.051538090229662        0.021402591580282        0.030135498649380        0.000000000000000        0.000000000000000        0.004366453534549
       -0.856000000000000        0.051831164736990        0.021512380286757        0.030318784450233        0.000000000000000        0.000000000000000        0.004403202081738
       -0.854000000000000        0.052126854071160        0.021623050488608        0.030503803582552        0.000000000000000        0.000000000000000        0.004440376546972
       -0.852000000000000        0.052425190743794        0.021734612052691        0.030690578691103        0.000000000000000        0.000000000000000        0.004477983319206
       -0.850000000000000        0.052726207795158        0.021847074990249        0.030879132804908        0.000000000000000        0.000000000000000        0.004516028907329
       -0.848000000000000        0.053029938805141        0.021960449460085        0.031069489345056        0.000000000000000        0.000000000000000        0.004554519942486
       -0.846000000000000        0.053336417904626        0.022074745772552        0.031261672132073        0.000000000000000        0.000000000000000        0.004593463179760
       -0.844000000000000        0.053645679789222        0.022189974391551        0.031455705397671        0.000000000000000        0.000000000000000        0.004632865503060
       -0.842000000000000        0.053957759725792        0.022306145936703        0.031651613789089        0.000000000000000        0.000000000000000        0.004672733926193
       -0.840000000000000        0.054272693570080        0.022423271187739        0.031849422382341        0.000000000000000        0.000000000000000        0.004713075597301
       -0.838000000000000        0.054590517775409        0.022541361086736        0.032049156688673        0.000000000000000        0.000000000000000        0.004753897800968
       -0.836000000000000        0.054911269405939        0.022660426740942        0.032250842664997        0.000000000000000        0.000000000000000        0.004795207962028
       -0.834000000000000        0.055234986150958        0.022780479427199        0.032454506723758        0.000000000000000        0.000000000000000        0.004837013648279
       -0.832000000000000        0.055561706338216        0.022901530594592        0.032660175743625        0.000000000000000        0.000000000000000        0.004879322574516
       -0.830000000000000        0.055891468944695        0.023023591866621        0.032867877078073        0.000000000000000        0.000000000000000        0.004922142605726
       -0.828000000000000        0.056224313614473        0.023146675046596        0.033077638567876        0.000000000000000        0.000000000000000        0.004965481760640
       -0.826000000000000        0.056560280670448        0.023270792120440        0.033289488550008        0.000000000000000        0.000000000000000        0.005009348214784
       -0.824000000000000        0.056899411130916        0.023395955259855        0.033503455871061        0.000000000000000        0.000000000000000        0.005053750305603
       -0.822000000000000        0.057241746723934        0.023522176826649        0.033719569897285        0.000000000000000        0.000000000000000        0.005098696535318
       -0.820000000000000        0.057587329902240        0.023649469375788        0.033937860526452        0.000000000000000        0.000000000000000        0.005144195575332
       -0.818000000000000        0.057936203861131        0.023777845660577        0.034158358200554        0.000000000000000        0.000000000000000        0.005190256269988
       -0.816000000000000        0.058288412553048        0.023907318635603        0.034381093917444        0.000000000000000        0.000000000000000        0.005236887640920
       -0.814000000000000        0.058644000706373        0.024037901460967        0.034606099245406        0.000000000000000        0.000000000000000        0.005284098892220
       -0.812000000000000        0.059003013841637        0.024169607507192        0.034833406334445        0.000000000000000        0.000000000000000        0.005331899413627
       -0.810000000000000        0.059365498288821        0.024302450358385        0.035063047930436        0.000000000000000        0.000000000000000        0.005380298786026
       -0.808000000000000        0.059731501209245        0.024436443818434        0.035295057390811        0.000000000000000        0.000000000000000        0.005429306786189
       -0.806000000000000        0.060101070608930        0.024571601913503        0.035529468695427        0.000000000000000        0.000000000000000        0.005478933390962
       -0.804000000000000        0.060474255363642        0.024707938898413        0.035766316465230        0.000000000000000        0.000000000000000        0.005529188783408
       -0.802000000000000        0.060851105234963        0.024845469260200        0.036005635974764        0.000000000000000        0.000000000000000        0.005580083357282
       -0.800000000000000        0.061231670894794        0.024984207724747        0.036247463170047        0.000000000000000        0.000000000000000        0.005631627722650
       -0.798000000000000        0.061616003941184        0.025124169259414        0.036491834681769        0.000000000000000        0.000000000000000        0.005683832711178
       -0.796000000000000        0.062004156926910        0.025265369081047        0.036738787845864        0.000000000000000        0.000000000000000        0.005736709382409
       -0.794000000000000        0.062396183376544        0.025407822658939        0.036988360717605        0.000000000000000        0.000000000000000        0.005790269029333
       -0.792000000000000        0.062792137812962        0.025551545721798        0.037240592091164        0.000000000000000        0.000000000000000        0.005844523184683
       -0.790000000000000        0.063192075779523        0.025696554263243        0.037495521516280        0.000000000000000        0.000000000000000        0.005899483626519
       -0.788000000000000        0.063596053865064        0.025842864546758        0.037753189318306        0.000000000000000        0.000000000000000        0.005955162385774
       -0.786000000000000        0.064004129730779        0.025990493113044        0.038013636617735        0.000000000000000        0.000000000000000        0.006011571752346
       -0.784000000000000        0.064416362134709        0.026139456785225        0.038276905349484        0.000000000000000        0.000000000000000        0.006068724282129
       -0.782000000000000        0.064832810959598        0.026289772675186        0.038543038284413        0.000000000000000        0.000000000000000        0.006126632804613
       -0.780000000000000        0.065253537241381        0.026441458191638        0.038812079049743        0.000000000000000        0.000000000000000        0.006185310429052
       -0.778000000000000        0.065678603195887        0.026594531044173        0.039084072151714        0.000000000000000        0.000000000000000        0.006244770553771
